Time[ps]      Etot[eV]     Epot[eV]     Ekin[eV]    T[K]
0.0000        -188.6860    -189.5098       0.8239   265.6
0.1000        -188.5089    -189.0476       0.5387   173.6
0.2000        -188.3715    -189.0936       0.7221   232.8
0.3000        -188.3292    -189.0968       0.7677   247.5
0.4000        -188.2922    -189.1892       0.8970   289.1
0.5000        -188.2279    -189.1914       0.9635   310.6
0.6000        -187.9519    -188.9759       1.0240   330.1
0.7000        -187.3992    -188.8179       1.4188   457.3
0.8000        -186.6396    -188.5191       1.8795   605.9
0.9000        -185.8460    -188.1766       2.3307   751.3
1.0000        -185.0490    -187.6344       2.5855   833.4
1.1000        -184.1494    -187.1935       3.0441   981.3
1.2000        -183.3411    -187.8508       4.5097  1453.7
1.3000        -182.3435    -186.9838       4.6402  1495.8
1.4000        -181.4212    -186.5097       5.0885  1640.3
1.5000        -180.3140    -185.4420       5.1279  1653.0
1.6000        -179.5426    -185.3768       5.8342  1880.7
1.7000        -179.1883    -184.5090       5.3207  1715.1
1.8000        -178.8743    -184.3193       5.4451  1755.2
1.9000        -178.6577    -183.9505       5.2929  1706.1
2.0000        -178.5787    -184.2097       5.6310  1815.1
2.1000        -178.3766    -185.8988       7.5222  2424.8
2.2000        -178.3412    -184.4493       6.1081  1968.9
2.3000        -178.3356    -183.1337       4.7981  1546.7
2.4000        -178.5368    -185.2065       6.6697  2150.0
2.5000        -178.4166    -184.4515       6.0349  1945.3
2.6000        -178.5751    -184.3869       5.8118  1873.4
2.7000        -178.7592    -185.4092       6.6500  2143.6
2.8000        -178.9123    -183.6110       4.6987  1514.6
2.9000        -178.9044    -185.8334       6.9290  2233.6
3.0000        -178.9782    -185.2497       6.2715  2021.6
3.1000        -178.9878    -185.5057       6.5179  2101.0
3.2000        -178.9606    -184.7077       5.7471  1852.6
3.3000        -178.8476    -183.7184       4.8708  1570.1
3.4000        -178.8447    -184.4955       5.6509  1821.5
3.5000        -178.9746    -184.6423       5.6678  1827.0
3.6000        -179.0350    -185.7292       6.6942  2157.9
3.7000        -179.2004    -185.4569       6.2564  2016.7
3.8000        -179.2308    -185.2210       5.9902  1930.9
3.9000        -179.2296    -185.3208       6.0912  1963.5
4.0000        -179.3790    -184.7014       5.3224  1715.7
4.1000        -179.4043    -184.2284       4.8241  1555.0
4.2000        -179.3211    -183.5428       4.2216  1360.8
4.3000        -179.4881    -184.7136       5.2255  1684.4
4.4000        -179.3226    -184.4583       5.1357  1655.5
4.5000        -179.3863    -184.6009       5.2146  1680.9
4.6000        -179.4260    -184.6281       5.2021  1676.9
4.7000        -179.5021    -184.6277       5.1256  1652.2
4.8000        -179.5324    -184.5491       5.0167  1617.1
4.9000        -179.6190    -185.4232       5.8043  1871.0
5.0000        -179.7181    -184.7088       4.9907  1608.7
5.1000        -179.5981    -184.5382       4.9401  1592.4
5.2000        -179.7611    -184.3383       4.5772  1475.5
5.3000        -179.8338    -185.1837       5.3499  1724.5
5.4000        -179.8603    -185.1260       5.2657  1697.4
5.5000        -180.0802    -185.1445       5.0643  1632.5
5.6000        -180.0950    -185.3322       5.2372  1688.2
5.7000        -179.9996    -184.8856       4.8860  1575.0
5.8000        -180.1729    -185.2407       5.0678  1633.6
5.9000        -180.2468    -185.0732       4.8264  1555.8
6.0000        -180.3697    -186.0252       5.6555  1823.0
6.1000        -180.4532    -185.2416       4.7884  1543.5
6.2000        -180.5674    -184.7138       4.1465  1336.6
6.3000        -180.7034    -186.2115       5.5081  1775.5
6.4000        -180.6368    -185.9088       5.2719  1699.4
6.5000        -180.7359    -184.5493       3.8134  1229.2
6.6000        -180.8072    -185.9477       5.1405  1657.0
6.7000        -180.8900    -185.9025       5.0125  1615.8
6.8000        -180.9925    -184.7926       3.8001  1225.0
6.9000        -180.9300    -185.0742       4.1443  1335.9
7.0000        -181.1569    -185.9513       4.7944  1545.5
7.1000        -181.1015    -185.1247       4.0232  1296.9
7.2000        -181.2148    -186.1872       4.9724  1602.8
7.3000        -181.3259    -184.8456       3.5197  1134.6
7.4000        -181.3673    -185.4905       4.1231  1329.1
7.5000        -181.4441    -185.4889       4.0448  1303.8
7.6000        -181.4477    -186.0244       4.5768  1475.3
7.7000        -181.4925    -186.2114       4.7189  1521.1
7.8000        -181.5623    -185.2880       3.7257  1201.0
7.9000        -181.6596    -185.9417       4.2821  1380.3
8.0000        -181.5620    -186.0469       4.4849  1445.7
8.1000        -181.7647    -185.5196       3.7549  1210.4
8.2000        -181.7525    -186.0071       4.2546  1371.4
8.3000        -181.8365    -186.5889       4.7524  1531.9
8.4000        -181.8319    -186.7716       4.9398  1592.3
8.5000        -181.8533    -186.1912       4.3379  1398.3
8.6000        -181.9553    -186.4239       4.4686  1440.5
8.7000        -181.9883    -185.5406       3.5523  1145.1
8.8000        -181.9975    -185.8004       3.8029  1225.9
8.9000        -182.0309    -185.7449       3.7140  1197.2
9.0000        -182.1180    -185.9451       3.8272  1233.7
9.1000        -182.0709    -186.2069       4.1360  1333.2
9.2000        -182.2694    -185.9646       3.6952  1191.1
9.3000        -182.3306    -186.0814       3.7508  1209.1
9.4000        -182.4122    -186.3789       3.9667  1278.7
9.5000        -182.5051    -185.6836       3.1786  1024.6
9.6000        -182.5087    -186.3741       3.8654  1246.0
9.7000        -182.5230    -185.6290       3.1061  1001.2
9.8000        -182.5294    -185.9244       3.3950  1094.4
9.9000        -182.6270    -186.5758       3.9488  1272.9
10.0000       -182.6698    -186.5568       3.8870  1253.0
10.1000       -182.7288    -186.4457       3.7169  1198.1
10.2000       -182.7795    -186.4568       3.6773  1185.4
10.3000       -182.7938    -186.2034       3.4097  1099.1
10.4000       -182.8412    -186.6201       3.7789  1218.1
10.5000       -182.9032    -186.5120       3.6088  1163.3
10.6000       -182.9812    -186.5997       3.6185  1166.4
10.7000       -183.0585    -185.9665       2.9081   937.4
10.8000       -183.1915    -186.5332       3.3417  1077.2
10.9000       -183.2805    -186.4987       3.2182  1037.4
11.0000       -183.3375    -187.0248       3.6873  1188.6
11.1000       -183.3912    -186.7617       3.3704  1086.5
11.2000       -183.3978    -186.8395       3.4417  1109.4
11.3000       -183.4949    -186.8957       3.4009  1096.3
11.4000       -183.5293    -186.7610       3.2317  1041.7
11.5000       -183.5614    -187.4616       3.9003  1257.2
11.6000       -183.6590    -187.1350       3.4760  1120.5
11.7000       -183.7353    -187.2561       3.5209  1134.9
11.8000       -183.8619    -186.9456       3.0837   994.0
11.9000       -183.9193    -186.7601       2.8408   915.7
12.0000       -184.0436    -186.8971       2.8535   919.8
12.1000       -184.0951    -187.1887       3.0935   997.2
12.2000       -184.2036    -187.0567       2.8531   919.7
12.3000       -184.2034    -187.1402       2.9368   946.7
12.4000       -184.2344    -187.5287       3.2944  1061.9
12.5000       -184.2504    -186.5522       2.3018   742.0
12.6000       -184.3584    -187.2622       2.9038   936.0
12.7000       -184.4581    -187.5679       3.1098  1002.4
12.8000       -184.4764    -187.3614       2.8850   930.0
12.9000       -184.5256    -186.8786       2.3530   758.5
13.0000       -184.5964    -186.7841       2.1877   705.2
13.1000       -184.6711    -187.0711       2.4000   773.6
13.2000       -184.7271    -187.1551       2.4280   782.7
13.3000       -184.8137    -187.8998       3.0861   994.8
13.4000       -184.8029    -187.4555       2.6526   855.1
13.5000       -184.8824    -186.8405       1.9582   631.2
13.6000       -184.9477    -187.5951       2.6475   853.4
13.7000       -185.0165    -187.1146       2.0981   676.3
13.8000       -185.0231    -187.5759       2.5528   822.9
13.9000       -185.1772    -187.3253       2.1480   692.4
14.0000       -185.1912    -186.8838       1.6926   545.6
14.1000       -185.3061    -187.6823       2.3763   766.0
14.2000       -185.3263    -187.7177       2.3914   770.9
14.3000       -185.3620    -188.1100       2.7480   885.8
14.4000       -185.4464    -187.5943       2.1480   692.4
14.5000       -185.4830    -187.8506       2.3676   763.2
14.6000       -185.5667    -188.0558       2.4891   802.3
14.7000       -185.5504    -188.0165       2.4661   794.9
14.8000       -185.6722    -187.6212       1.9491   628.3
14.9000       -185.6948    -187.7746       2.0797   670.4
15.0000       -185.7308    -187.6861       1.9553   630.3
15.1000       -185.7807    -187.4880       1.7072   550.3
15.2000       -185.8332    -187.8298       1.9965   643.6
15.3000       -185.9062    -187.4747       1.5684   505.6
15.4000       -185.9959    -188.1132       2.1173   682.5
15.5000       -186.0309    -188.0146       1.9837   639.4
15.6000       -186.0846    -188.1583       2.0738   668.5
15.7000       -186.1481    -187.8128       1.6647   536.6
15.8000       -186.1711    -188.0849       1.9138   616.9
15.9000       -186.2701    -188.2358       1.9657   633.7
16.0000       -186.3507    -188.0161       1.6655   536.9
16.1000       -186.4186    -188.2850       1.8665   601.7
16.2000       -186.4708    -188.2459       1.7751   572.2
16.3000       -186.5182    -187.7014       1.1832   381.4
16.4000       -186.5768    -188.1193       1.5425   497.2
16.5000       -186.6239    -188.0768       1.4529   468.3
16.6000       -186.7298    -188.1625       1.4326   461.8
16.7000       -186.8017    -188.0093       1.2076   389.3
16.8000       -186.8732    -188.2792       1.4061   453.2
16.9000       -186.9087    -188.0072       1.0985   354.1
17.0000       -186.9321    -188.6515       1.7195   554.3
17.1000       -187.0318    -188.2071       1.1754   378.9
17.2000       -187.0881    -188.6858       1.5977   515.0
17.3000       -187.1862    -188.6639       1.4777   476.3
17.4000       -187.2423    -188.6223       1.3800   444.8
17.5000       -187.2710    -188.4531       1.1821   381.1
17.6000       -187.3219    -188.6653       1.3435   433.1
17.7000       -187.4013    -188.3278       0.9265   298.6
17.8000       -187.4734    -188.6142       1.1408   367.7
17.9000       -187.5586    -188.6177       1.0591   341.4
18.0000       -187.6043    -188.7889       1.1845   381.8
18.1000       -187.6797    -188.9272       1.2475   402.1
18.2000       -187.7410    -188.8460       1.1050   356.2
18.3000       -187.7976    -189.0082       1.2105   390.2
18.4000       -187.8965    -188.9178       1.0213   329.2
18.5000       -187.9382    -189.0589       1.1207   361.3
