Time[ps]    Etot/N[eV]   Epot/N[eV]   Ekin/N[eV]    T[K]      ---------------------- stress [GPa] -----------------------
0.0000          -7.8542      -7.8998       0.0456   368.4     -3.914     -3.985     -4.076      0.064      0.036      0.005
0.0100          -7.8549      -7.8808       0.0258   208.5     -2.609     -2.592     -2.434      0.795     -1.033     -2.220
0.0200          -7.8449      -7.8719       0.0270   217.7     -1.314     -1.173     -1.442      0.489     -0.213     -0.836
0.0300          -7.8315      -7.8634       0.0319   257.8     -0.494     -0.458     -0.258     -0.676      1.246      1.805
0.0400          -7.8151      -7.8661       0.0510   411.3      0.650      0.231      0.036     -0.582      0.035      1.776
0.0500          -7.8106      -7.8847       0.0741   598.3      1.118      1.369      1.705     -0.032     -1.576     -1.051
0.0600          -7.8045      -7.8780       0.0735   593.6      2.448      2.695      2.748      0.367     -1.659     -2.618
0.0700          -7.7956      -7.8592       0.0636   513.2      3.731      4.740      3.131      0.181     -0.931     -1.294
0.0800          -7.7781      -7.8347       0.0566   457.2      4.133      5.665      5.539     -1.157      0.040      1.366
0.0900          -7.7617      -7.8440       0.0823   664.4      4.590      5.200      7.335     -0.513     -1.492      0.893
0.1000          -7.7534      -7.8264       0.0730   589.2      4.382      6.360      5.900      0.575     -3.519     -2.896
0.1100          -7.7232      -7.8073       0.0841   679.2      2.589      5.364      4.509      0.677     -3.007     -3.654
0.1200          -7.7067      -7.8084       0.1017   821.0      0.800      2.811      2.011      0.401      0.632      0.204
0.1300          -7.6829      -7.7969       0.1140   920.3     -0.540     -0.400     -0.319     -0.954      1.726      2.049
0.1400          -7.6679      -7.8248       0.1568  1266.2     -3.638     -1.220     -2.456     -0.809     -1.112     -0.086
0.1500          -7.6607      -7.8071       0.1463  1181.1     -2.390     -2.550     -1.968      1.006     -2.129     -1.807
0.1600          -7.6398      -7.7797       0.1399  1129.1     -0.047     -1.730     -1.414      2.406      0.455      0.876
0.1700          -7.6154      -7.7610       0.1456  1175.2     -2.013     -0.060     -0.586     -0.988      2.130      5.460
0.1800          -7.5944      -7.7646       0.1702  1373.7      0.802     -0.911      0.240     -3.383      3.045      2.792
0.1900          -7.5748      -7.7458       0.1709  1379.9      3.129      0.977      1.551     -1.743      0.676     -1.556
0.2000          -7.5571      -7.7509       0.1938  1564.6      1.246      3.161      4.499      0.709     -1.328     -0.483
0.2100          -7.5508      -7.7652       0.2144  1730.5      3.656      2.031      3.745     -0.346      1.701      1.272
0.2200          -7.5319      -7.7210       0.1891  1526.6      3.142      0.990      1.665     -2.776      0.808      2.230
0.2300          -7.5144      -7.7408       0.2265  1828.1      1.863      3.762      1.882     -4.939     -2.599      1.766
0.2400          -7.4996      -7.7406       0.2411  1945.9      4.704      0.650      0.690     -0.707     -3.607     -3.608
0.2500          -7.4749      -7.6778       0.2029  1637.9      2.785     -1.344     -2.291      3.958     -1.378     -4.834
0.2600          -7.4483      -7.7239       0.2756  2224.7     -1.620      1.303      2.773      0.292      0.106     -2.332
0.2700          -7.4277      -7.6679       0.2402  1939.0     -0.042      1.155      0.892     -3.017     -2.106     -0.684
0.2800          -7.4048      -7.6248       0.2200  1775.7      1.081     -0.194     -0.441     -1.724     -3.462     -2.924
0.2900          -7.3947      -7.7292       0.3345  2700.4      1.943      3.744      2.578      3.092     -0.317     -3.604
0.3000          -7.3813      -7.6597       0.2785  2248.1     -3.167      0.013      4.564      4.514      1.083     -1.880
0.3100          -7.3713      -7.6794       0.3081  2487.0     -2.023     -1.949     -1.863      2.860      1.723      0.874
0.3200          -7.3583      -7.6694       0.3110  2510.8     -2.828      1.263     -4.825     -3.155      1.912      3.389
0.3300          -7.3315      -7.5801       0.2485  2006.4     -3.202     -0.852     -0.144     -1.990      3.192      2.920
0.3400          -7.2829      -7.5743       0.2914  2352.7      1.102     -0.151      2.604     -2.658      0.123     -0.263
0.3500          -7.2494      -7.5992       0.3498  2823.9      2.440      1.052      0.323     -2.725     -0.094      0.869
0.3600          -7.2555      -7.6082       0.3527  2847.1      1.308      0.096     -0.430      0.595      2.580      2.987
0.3700          -7.2319      -7.5811       0.3492  2819.4     -2.666      2.493     -0.705     -2.857      3.096      3.881
0.3800          -7.2013      -7.5544       0.3531  2850.5      0.331     -3.121     -1.953     -6.769      3.490      2.811
0.3900          -7.1713      -7.5077       0.3364  2715.7     -4.274      0.421     -3.339     -2.216      0.088      3.333
0.4000          -7.1521      -7.5583       0.4062  3278.8      1.024     -3.919     -4.520      1.939      1.461     -0.339
0.4100          -7.1586      -7.6062       0.4475  3612.8     -1.335     -1.621     -2.611     -3.297      1.621     -1.388
0.4200          -7.1311      -7.4708       0.3397  2742.1     -3.037     -2.939      2.220     -7.552      0.348     -0.267
0.4300          -7.1134      -7.5184       0.4050  3269.4      2.133      0.865     -1.056     -2.381     -2.637      0.403
0.4400          -7.0916      -7.5517       0.4601  3714.0      1.580      3.620     -0.054      1.550     -1.266     -0.706
0.4500          -7.0948      -7.5237       0.4289  3462.4     -1.141      5.599      1.484      2.796     -0.819     -2.820
0.4600          -7.0829      -7.5228       0.4399  3551.0      1.630      1.633      4.311      2.327     -0.186     -2.232
0.4700          -7.0408      -7.4003       0.3595  2902.1      0.880     -3.924     -0.430     -1.686     -2.424     -1.200
0.4800          -6.9962      -7.4905       0.4943  3990.0     -0.871     -1.237      5.113     -0.500      0.314      0.140
0.4900          -6.9983      -7.4603       0.4620  3729.8     -3.290     -3.421      7.225      5.396      0.704      7.262
0.5000          -6.9953      -7.5242       0.5288  4269.2      0.946      6.979      5.389      2.712      0.647     -2.586
0.5100          -7.0000      -7.4433       0.4434  3579.1      6.161      7.291     -4.403      1.360      0.409     -5.014
0.5200          -6.9736      -7.5019       0.5283  4264.6      8.846      6.146      2.710     -4.942      0.545      3.771
0.5300          -6.9441      -7.3682       0.4242  3424.1      1.160     -6.082      8.574     -1.872      0.928      4.426
0.5400          -6.8889      -7.3337       0.4448  3590.9      0.970     -2.744      3.411      1.619     -0.079      1.679
0.5500          -6.8609      -7.3133       0.4524  3652.0     -1.221      3.641     -8.949     -2.118      0.981     -0.963
0.5600          -6.8223      -7.4256       0.6033  4870.6     -2.644      0.621     -6.507     -3.944     -2.165     -3.135
0.5700          -6.8425      -7.4744       0.6318  5100.6     -4.973     -8.888      1.065     -3.503     -5.695     -4.627
0.5800          -6.8619      -7.4292       0.5673  4579.3     -2.433      0.589      0.226     -0.144     -6.118     -2.672
0.5900          -6.8355      -7.3378       0.5022  4054.5      3.046      3.569     -0.823      3.005      1.976     -2.486
0.6000          -6.8068      -7.3676       0.5607  4526.5      4.217      4.065     -1.876      2.793      4.551      0.183
0.6100          -6.7780      -7.3654       0.5874  4741.9     -3.091     -3.414     -2.679     -1.605      4.212      3.007
0.6200          -6.7908      -7.4681       0.6773  5467.6      1.762     -4.966     -1.604     -4.359      3.669      0.356
0.6300          -6.7999      -7.4154       0.6156  4969.4      6.071      1.845     -0.722     -0.108     -7.562      0.787
0.6400          -6.7840      -7.3478       0.5638  4551.7      7.477      8.778      5.755      3.833     -2.083      0.860
0.6500          -6.7340      -7.1898       0.4559  3680.1      4.211      8.398      3.440      3.856      1.695     -1.637
0.6600          -6.6494      -7.2185       0.5691  4594.2     -2.576      6.291      6.321     -0.569      5.382     -1.052
0.6700          -6.6175      -7.2087       0.5912  4772.5     -2.589     -3.439      2.001     -8.426      1.631     -2.614
0.6800          -6.5801      -7.1675       0.5874  4742.1     -6.537     -0.253     -6.623     -3.195      0.216      1.142
0.6900          -6.5213      -7.1339       0.6126  4945.2     -8.056     -1.815    -11.940     -2.068      3.519     -6.681
0.7000          -6.4995      -7.1550       0.6555  5291.3    -13.546     -8.340      5.141     -3.088     -2.355     -3.369
0.7100          -6.5014      -7.2695       0.7681  6200.3     -4.131      3.970     -6.799      0.250     -3.775      0.558
0.7200          -6.5129      -7.2821       0.7692  6209.4     -1.887      2.163     -2.258      0.624     -5.892      0.428
0.7300          -6.5104      -7.1381       0.6277  5067.0      3.095     -4.366      1.321      2.308     -1.702     -6.948
0.7400          -6.4718      -7.0952       0.6234  5032.2      5.430     -6.534      3.621      4.162      3.745     -1.058
0.7500          -6.4139      -7.0857       0.6718  5423.2     -5.320      2.445     -0.647      2.787      4.239      8.674
0.7600          -6.3639      -7.0833       0.7195  5808.0     -1.697      0.626     -4.067      3.189      0.661      0.365
0.7700          -6.3494      -7.0726       0.7231  5837.5     -0.990     -8.533     -4.276      2.917      0.644     -5.318
0.7800          -6.2994      -7.0175       0.7181  5797.3      0.781     -6.086      4.323     -1.810      0.757     -4.466
0.7900          -6.2800      -6.9670       0.6870  5545.8     -3.715      2.073     -0.854     -2.424     -1.378      2.590
0.8000          -6.2409      -6.9132       0.6723  5427.4     -0.224      4.887     -2.598     -2.182     -1.527     -2.294
0.8100          -6.1688      -6.8432       0.6744  5444.4     -3.899      5.188     -6.192      1.387     -3.258     -0.228
0.8200          -6.1262      -6.8633       0.7371  5950.5      0.824      0.586     -0.251      1.214     -2.350     -3.411
0.8300          -6.0648      -6.8271       0.7623  6153.7      8.314      3.139      8.257     -2.051     -1.366     -4.854
0.8400          -6.0394      -6.8101       0.7706  6221.2     -2.331      0.537      2.415     -1.995     -1.700      0.218
0.8500          -5.9996      -6.7645       0.7649  6175.1     -8.094     -5.072      2.456      8.320      0.142     -6.260
0.8600          -5.9573      -6.7175       0.7601  6136.4      1.550     -2.456      2.069      6.408     -4.308     -3.118
0.8700          -5.9002      -6.6298       0.7296  5890.2      5.372      1.732      2.577      2.162     -0.359     -7.334
0.8800          -5.8510      -6.5899       0.7389  5965.0      1.585      7.430     -3.556      1.761      5.983     -0.109
0.8900          -5.7938      -6.5652       0.7714  6227.6      0.268     -2.330     -4.000      2.957      5.967      4.435
0.9000          -5.7316      -6.4638       0.7322  5910.6      6.481    -12.822     -0.194      7.962     -0.530      3.295
0.9100          -5.6566      -6.5610       0.9045  7301.6      8.408      3.393     -2.975      6.909     -2.487      0.091
0.9200          -5.6434      -6.4960       0.8526  6882.6     -1.404      2.262      2.096      4.377      0.784     -4.676
0.9300          -5.6518      -6.6413       0.9895  7987.6      0.836     -0.470      0.920      3.305     -5.655      1.547
0.9400          -5.6395      -6.6484       1.0089  8144.5      5.951    -10.321      1.867      5.413     -2.463      5.200
0.9500          -5.6981      -6.6958       0.9977  8054.2      0.037     -0.736      3.981     -1.421     10.206     -2.930
0.9600          -5.6867      -6.5925       0.9057  7311.7     -5.615      3.741      1.617     -8.365     11.471     -2.355
0.9700          -5.7019      -6.6812       0.9793  7905.6     -7.677      7.446      4.189     -1.066     -2.135     -2.241
0.9800          -5.6596      -6.6985       1.0389  8386.4     -0.978     -8.992      1.745     -0.302     -3.470      5.680
0.9900          -5.6820      -6.6072       0.9251  7468.3     -4.453    -11.586     -7.658     -0.373      0.869      8.259
1.0000          -5.6642      -6.5186       0.8544  6897.4     -2.438     -3.334      4.306      3.737      1.688     -1.424
1.0100          -5.5594      -6.2973       0.7379  5956.9     -1.854     -6.709      7.760     -1.851      4.516      4.064
1.0200          -5.4773      -6.4156       0.9382  7574.2     -3.363     -5.005      0.513      2.736      3.336      6.173
1.0300          -5.4414      -6.3912       0.9497  7666.9      0.174     -4.728     -4.884      2.338      3.425     -0.101
1.0400          -5.3989      -6.2893       0.8905  7188.4      5.492     -3.485     -3.016      5.999      3.407      0.621
1.0500          -5.3709      -6.3326       0.9617  7763.1      3.775      2.484     -2.870      2.889     -0.821      3.659
1.0600          -5.3448      -6.2764       0.9316  7520.6      3.123     -1.579     -7.547      1.727      1.708      2.296
1.0700          -5.3205      -6.2453       0.9249  7466.4      1.146     -5.276     -3.628     -4.567      1.554      2.759
1.0800          -5.2910      -6.2602       0.9692  7824.4      0.887    -11.422     -3.976     -1.220      2.330      0.964
1.0900          -5.2937      -6.3123       1.0186  8222.8      5.292     -4.214     -6.173      4.134      2.506     -1.050
1.1000          -5.2660      -6.2081       0.9421  7605.0      7.866      0.506     -4.134      0.408      3.895      2.563
1.1100          -5.2489      -6.0682       0.8193  6613.8      3.194      3.712      1.370      1.673      5.780      6.795
1.1200          -5.1276      -5.8306       0.7029  5674.5     -5.093     -6.822    -11.110     -5.377     10.649      3.934
1.1300          -5.0250      -5.8582       0.8331  6725.8      1.586     -5.309     -8.833     -2.075      3.989     -3.158
1.1400          -4.9728      -5.9069       0.9342  7541.1      1.036     -2.127      1.187     -0.962      4.024     -0.389
1.1500          -4.9210      -5.9263       1.0053  8115.8     -7.379     -3.773     -4.221      2.056     -2.583      3.537
1.1600          -4.9390      -5.9771       1.0382  8380.8     -4.015     -8.711     -1.692     -0.148     -4.634      3.096
1.1700          -4.9796      -6.0749       1.0952  8841.3      0.058     -2.259     -8.991     -6.836     -7.907     -0.929
1.1800          -5.0184      -5.9786       0.9602  7751.3     -1.247     -6.752     -5.142     -5.272      5.739     -2.217
1.1900          -5.0097      -6.0020       0.9923  8010.3      0.606     -8.230     -0.860     -3.674      5.296      2.902
1.2000          -4.9972      -6.0131       1.0159  8200.7     -1.670     -4.191     -6.288      2.065      1.921      1.118
1.2100          -5.0219      -6.0135       0.9917  8005.4     -6.697     -4.967     -2.268     -1.753     -2.119     -2.678
1.2200          -5.0450      -6.0952       1.0502  8477.9     -0.197     -2.964      6.644      4.194      3.210     -0.300
1.2300          -5.0338      -5.9642       0.9305  7511.3      0.711     -9.307      3.131      3.240      4.561      2.464
1.2400          -5.0498      -6.1030       1.0532  8501.9     -3.878     -0.218      5.403      4.687      5.684      0.025
1.2500          -5.0451      -5.9521       0.9070  7321.7      1.336      1.122     -3.752      3.084      4.216     -2.597
1.2600          -5.0281      -5.8942       0.8660  6991.3      1.854     -5.836      0.909      2.423      1.094      5.136
1.2700          -5.0478      -6.0553       1.0075  8132.9     -0.752     -2.294     -7.141      1.462      3.078      3.304
1.2800          -5.0430      -5.9983       0.9553  7712.1     -3.043     -7.210     -9.066      2.297      4.741     -0.114
1.2900          -5.0142      -5.9647       0.9505  7673.4      6.698      0.014     -1.710     -2.712      1.274      5.139
1.3000          -5.0364      -5.9262       0.8898  7183.5      4.781     -0.843    -15.260     -0.057      6.828      1.549
1.3100          -4.9808      -5.9790       0.9982  8058.0     -0.524     -6.511     -3.403      0.133      3.994     -0.904
1.3200          -4.9909      -6.0898       1.0989  8870.8     -1.503     -5.100     -2.522     -1.896     -0.527      0.299
1.3300          -5.0400      -6.0990       1.0590  8549.0     -3.838     -1.409     -4.623      2.362     -3.057     -0.299
1.3400          -5.0532      -6.0156       0.9624  7768.8     -2.955     -1.846      1.892      3.236      0.726     -0.735
1.3500          -5.0299      -6.0042       0.9743  7865.1     -3.120      2.204      0.923      0.385      2.594     -6.881
1.3600          -5.0309      -5.9638       0.9329  7530.9      2.289     -2.239     -0.865      0.296      3.145     -4.302
1.3700          -4.9695      -5.7913       0.8218  6634.3     -0.382     -1.396     -4.997      1.645     -2.228     -3.073
1.3800          -4.9120      -5.8767       0.9647  7787.8     -5.166     -1.960     -4.010      1.882      0.296     -1.098
1.3900          -4.9101      -5.8939       0.9838  7942.0      0.195     -7.517     -2.562     -3.734     -2.382      2.224
1.4000          -4.8974      -5.8711       0.9737  7860.1      4.559     -2.664      1.443      1.539     -2.232     -2.660
1.4100          -4.9217      -5.9477       1.0260  8282.5     -0.016      4.131     -3.697     -3.635     -2.024     -3.218
1.4200          -4.9427      -6.1049       1.1622  9382.1     -8.941      2.388     -4.992     -5.503      1.660     -1.572
1.4300          -4.9833      -6.0250       1.0417  8409.3     -7.213     -2.759     -6.013     -0.255     -2.088      1.041
1.4400          -5.0452      -6.1405       1.0953  8842.0      1.077      5.335      4.307     -1.454      0.745     -1.621
1.4500          -5.0328      -5.9059       0.8731  7048.4     -1.353      0.501      3.492      1.795     -0.283     -0.127
1.4600          -4.9804      -5.8187       0.8383  6767.1      2.178     -1.438      1.793      1.213      1.134      4.115
1.4700          -4.8935      -5.6981       0.8046  6495.7      1.464     -2.333      2.292      3.347      2.916      4.592
1.4800          -4.8049      -5.6223       0.8174  6598.9     -4.065     -7.239     -6.819      1.324     -2.138      0.073
1.4900          -4.7747      -5.7718       0.9971  8049.4     -0.643      0.171     -1.564      1.862      1.316      1.654
1.5000          -4.7582      -5.7748       1.0165  8206.2      4.204      3.490     -1.649      3.155      1.634     -0.467
1.5100          -4.7902      -5.8578       1.0676  8618.8      2.805     -3.789     -0.243      7.287      0.486     -4.615
1.5200          -4.8545      -5.9381       1.0836  8747.9    -13.416     -1.826      7.407      2.954      1.308      1.572
1.5300          -4.9051      -6.0549       1.1498  9282.2     -4.613     -8.298      3.277     -1.868      3.563      2.399
1.5400          -4.9463      -5.9809       1.0346  8352.3     -0.769      5.520     -5.177     -2.491     -0.385      1.554
1.5500          -4.9732      -5.9939       1.0207  8239.7      1.483      3.424      4.795      1.308      0.831      1.393
1.5600          -4.9905      -6.0055       1.0150  8193.7      3.348     -4.032      1.932     -0.874      1.563     -2.572
1.5700          -5.0041      -5.9708       0.9667  7803.5     -0.502     -2.372     -4.751      1.364     -3.602     -2.644
1.5800          -4.9311      -5.6918       0.7607  6140.7     -1.689     -6.800     -9.079      0.897      2.368     -1.669
1.5900          -4.8486      -5.7631       0.9146  7383.1      6.022      1.906      5.588      1.323     -3.314     -2.453
